# dimensionless total lensed [l(l+1)/2pi] C_l's
# for l=2 to 3000, i.e. number of multipoles equal to 2999
#
# -> if you prefer output in CAMB/HealPix/LensPix units/order, set 'format' to 'camb' in input file
# -> if you don't want to see such a header, set 'headers' to 'no' in input file
# -> for CMB lensing (phi), these are C_l^phi-phi for the lensing potential.
#    Remember the conversion factors:
#    C_l^dd (deflection) = l(l+1) C_l^phi-phi
#    C_l^gg (shear/convergence) = 1/4 (l(l+1))^2 C_l^phi-phi
#
# 1:l     2:TT                     3:EE                     4:TE                     5:BB                     6:phiphi                 7:TPhi                   8:Ephi               
    2       1.375982558488e-10       4.559145669612e-15       3.689856911316e-13       2.320064800383e-19       8.366685769411e-09       4.493036209172e-10      -1.932489251619e-12 
    3       1.302703729827e-10       6.256159453462e-15       4.246270380806e-13       4.641658539746e-19       5.127337439438e-09       3.184397576181e-10      -1.522873320473e-12 
    4       1.232292404639e-10       5.827047004572e-15       4.060796785586e-13       7.739441822530e-19       3.549085019788e-09       2.410636117809e-10      -1.053743380778e-12 
    5       1.178978427534e-10       4.202550590972e-15       3.533077072682e-13       1.161530685877e-18       2.640139333078e-09       1.903869534769e-10      -6.393301447422e-13 
    6       1.141897392593e-10       2.509601170938e-15       2.901272555935e-13       1.627149819099e-18       2.056719105536e-09       1.549117150095e-10      -3.150690330808e-13 
    7       1.117898453763e-10       1.368196883587e-15       2.309267123850e-13       2.171053982453e-18       1.655536692123e-09       1.288615313560e-10      -8.953419676953e-14 
    8       1.103139803644e-10       8.216923812042e-16       1.827944380218e-13       2.793515496418e-18       1.365629468218e-09       1.090628053406e-10       4.450817967719e-14 
    9       1.095890798117e-10       6.274027659292e-16       1.482309779624e-13       3.494818174903e-18       1.148079688975e-09       9.366124981064e-11       1.035888171696e-13 
   10       1.094390403226e-10       5.474408297737e-16       1.268435755348e-13       4.275248853728e-18       9.799590390916e-10       8.144228032567e-11       1.088424145413e-13 
   11       1.096658599880e-10       4.737464657605e-16       1.166223171457e-13       5.135089229928e-18       8.386475760562e-10       7.223855148408e-11       8.209206711959e-14 
   12       1.102494267236e-10       4.034617762110e-16       1.147683370614e-13       6.074608352877e-18       7.328769509523e-10       6.401060713972e-11       4.244331260822e-14 
   13       1.110720146251e-10       3.630095751536e-16       1.183977405797e-13       7.094056078555e-18       6.460359840052e-10       5.709980769054e-11       3.927919840281e-15 
   14       1.120792079046e-10       3.600931305787e-16       1.251074319271e-13       8.193657754996e-18       5.737772886459e-10       5.125857491956e-11      -2.464821267375e-14 
   15       1.132689234690e-10       3.817252160842e-16       1.331769958004e-13       9.373610351908e-18       5.129521940108e-10       4.631704814398e-11      -3.975559478386e-14 
   16       1.145786987304e-10       4.137646833499e-16       1.415096224676e-13       1.063408018292e-17       4.612315842513e-10       4.206536955190e-11      -4.224197537091e-14 
   17       1.160278690462e-10       4.539360832463e-16       1.496463332721e-13       1.197520229774e-17       4.168591798479e-10       3.829710471899e-11      -3.575963669526e-14 
   18       1.175645257897e-10       5.101638242374e-16       1.575368722912e-13       1.339708070303e-17       3.783469080605e-10       3.500164694269e-11      -2.483782658179e-14 
   19       1.191893147910e-10       5.880523947060e-16       1.654427086606e-13       1.489979524503e-17       3.450726833501e-10       3.213602036314e-11      -1.315218365664e-14 
   20       1.208754337918e-10       6.908807895826e-16       1.737122961090e-13       1.648339659236e-17       3.157671369131e-10       2.956134194243e-11      -4.435844228311e-15 
   21       1.226296736274e-10       8.169666202036e-16       1.824710273091e-13       1.814792352879e-17       2.899689670186e-10       2.727842520822e-11       3.497143970208e-19 
   22       1.244396240096e-10       9.625376480255e-16       1.917220416062e-13       1.989339703345e-17       2.670568362377e-10       2.529136212878e-11       2.378859900840e-18 
   23       1.263100323508e-10       1.127506910577e-15       2.013368740078e-13       2.171984034910e-17       2.467238293563e-10       2.354966383309e-11      -3.331814530597e-15 
   24       1.282293102777e-10       1.312619420795e-15       2.110625422604e-13       2.362727212628e-17       2.285054701226e-10       2.196321428569e-11      -8.178624224784e-15 
   25       1.301939119545e-10       1.517563558621e-15       2.204926917575e-13       2.561572578019e-17       2.121545031923e-10       2.050649991456e-11      -1.298111570568e-14 
   26       1.321901479058e-10       1.741720755708e-15       2.291584424222e-13       2.768524517121e-17       1.973508146216e-10       1.916357094222e-11      -1.626366496300e-14 
   27       1.342279187711e-10       1.985892363910e-15       2.368511876704e-13       2.983590936132e-17       1.840175807200e-10       1.793860876157e-11      -1.764500811327e-14 
   28       1.363089617640e-10       2.251401669864e-15       2.434374064426e-13       3.206781866519e-17       1.719931343018e-10       1.683036201832e-11      -1.714020466191e-14 
   29       1.384207157789e-10       2.539735229131e-15       2.488085733468e-13       3.438109523388e-17       1.609853796957e-10       1.582542581753e-11      -1.495602398604e-14 
   30       1.405657838394e-10       2.852606295615e-15       2.529818682947e-13       3.677590347338e-17       1.509335776086e-10       1.491516312867e-11      -1.180174408612e-14 
   31       1.427404246256e-10       3.191940588393e-15       2.560443776334e-13       3.925244263914e-17       1.417630644690e-10       1.408286202839e-11      -8.735859021213e-15 
   32       1.449328348904e-10       3.559612870115e-15       2.581063776300e-13       4.181094291487e-17       1.333286887590e-10       1.330582356161e-11      -6.824152762910e-15 
   33       1.471502916520e-10       3.956529140274e-15       2.592140170242e-13       4.445165894764e-17       1.255844852203e-10       1.258273671153e-11      -6.138466765817e-15 
   34       1.493998264736e-10       4.383195047317e-15       2.594074110848e-13       4.717487881271e-17       1.184618484272e-10       1.191511334929e-11      -6.388184658640e-15 
   35       1.516824241890e-10       4.840054496952e-15       2.587079849678e-13       4.998091375627e-17       1.118547371915e-10       1.130071966568e-11      -7.214510589927e-15 
   36       1.540010255153e-10       5.327884967699e-15       2.569927670887e-13       5.287004715752e-17       1.057459965338e-10       1.073727777090e-11      -8.338800398478e-15 
   37       1.563537650606e-10       5.847526707767e-15       2.540744926465e-13       5.584257109933e-17       1.001164789016e-10       1.021928625021e-11      -9.454927637520e-15 
   38       1.587307909077e-10       6.399773517967e-15       2.497317820383e-13       5.889880168687e-17       9.490685361129e-11       9.736509912587e-12      -1.018374122893e-14 
   39       1.611193844007e-10       6.985367457631e-15       2.437588873286e-13       6.203905318730e-17       9.003900485568e-11       9.277398910754e-12      -1.018599877393e-14 
   40       1.635234412147e-10       7.604989382206e-15       2.361412815649e-13       6.526354640912e-17       8.549802011974e-11       8.841758366997e-12      -9.559414340614e-15 
   41       1.659492416060e-10       8.259259265320e-15       2.269358520913e-13       6.857247144331e-17       8.127195228171e-11       8.431703912671e-12      -8.568792854484e-15 
   42       1.683996999293e-10       8.948734059763e-15       2.162253946915e-13       7.196601157798e-17       7.732735583804e-11       8.048078962538e-12      -7.543912930046e-15 
   43       1.708753136040e-10       9.673929328818e-15       2.040931843579e-13       7.544431640982e-17       7.362165581933e-11       7.690628802370e-12      -6.803893897031e-15 
   44       1.733782651755e-10       1.043540096043e-14       1.905335456473e-13       7.900741277607e-17       7.014914289346e-11       7.358880883133e-12      -6.392373025436e-15 
   45       1.759089577924e-10       1.123368269863e-14       1.755160069168e-13       8.265526490075e-17       6.690627461030e-11       7.051330408207e-12      -6.266687687869e-15 
   46       1.784645094248e-10       1.206926099916e-14       1.590096967264e-13       8.638779591425e-17       6.387786564151e-11       6.765064624701e-12      -6.369530524186e-15 
   47       1.810384568929e-10       1.294257293825e-14       1.409831839344e-13       9.020488551520e-17       6.103618004681e-11       6.495658079040e-12      -6.628014401681e-15 
   48       1.836238982362e-10       1.385398915272e-14       1.214031447812e-13       9.410636484487e-17       5.834946902390e-11       6.238426958969e-12      -6.965951869180e-15 
   49       1.862246578796e-10       1.480376185309e-14       1.002302929497e-13       9.809200485715e-17       5.581254812068e-11       5.992854637126e-12      -7.346968430267e-15 
   50       1.888467602787e-10       1.579205856307e-14       7.742202750400e-14       1.021615206531e-16       5.342327977622e-11       5.759233671368e-12      -7.741935870508e-15 
   51       1.914951487890e-10       1.681897302411e-14       5.293329138770e-14       1.063145715630e-16       5.117346504365e-11       5.537381105257e-12      -8.116564429980e-15 
   52       1.941735651203e-10       1.788452234050e-14       2.671635167162e-14       1.105507586659e-16       4.904841776879e-11       5.326603064799e-12      -8.431141972326e-15 
   53       1.968844724957e-10       1.898868613188e-14      -1.272396408162e-15       1.148696681014e-16       4.703157587628e-11       5.126010460398e-12      -8.651772829285e-15 
   54       1.996290794185e-10       2.013154238210e-14      -3.104945744023e-14       1.192710197888e-16       4.512070750670e-11       4.935642893267e-12      -8.788087596287e-15 
   55       2.024071119222e-10       2.131316154721e-14      -6.262168375732e-14       1.237545526273e-16       4.331513002611e-11       4.755572050697e-12      -8.864775550366e-15 
   56       2.052166543581e-10       2.253356653674e-14      -9.599270910904e-14       1.283199815036e-16       4.161082789571e-11       4.585555681411e-12      -8.911150102143e-15 
   57       2.080540306814e-10       2.379273162005e-14      -1.311628739161e-13       1.329669967313e-16       4.000023805002e-11       4.425016913698e-12      -8.961370131565e-15 
   58       2.109136857380e-10       2.509058133277e-14      -1.681291505246e-13       1.376952634910e-16       3.847203527498e-11       4.273023573545e-12      -9.054661323650e-15 
   59       2.137902573615e-10       2.642696651430e-14      -2.068858852122e-13       1.425044859410e-16       3.701424930437e-11       4.128539463901e-12      -9.224314412107e-15 
   60       2.166856242101e-10       2.780158840577e-14      -2.474273951916e-13       1.473946182078e-16       3.562494886956e-11       3.991293318378e-12      -9.461193688275e-15 
   61       2.196032877462e-10       2.921405496126e-14      -2.897458436778e-13       1.523657014909e-16       3.430366390009e-11       3.861075450849e-12      -9.742130200335e-15 
   62       2.225462817941e-10       3.066390033620e-14      -3.338304300654e-13       1.574178052980e-16       3.304817235530e-11       3.737472308556e-12      -1.004024387198e-14 
   63       2.255171280901e-10       3.215058301852e-14      -3.796673428696e-13       1.625510290774e-16       3.185439854207e-11       3.619855009266e-12      -1.032478439433e-14 
   64       2.285177918344e-10       3.367348395985e-14      -4.272397126667e-13       1.677655038493e-16       3.071631143255e-11       3.507367878425e-12      -1.056097211791e-14 
   65       2.315497302892e-10       3.523189316743e-14      -4.765292482291e-13       1.730614034477e-16       2.962758867710e-11       3.399158008021e-12      -1.071792444702e-14 
   66       2.346141503763e-10       3.682497037685e-14      -5.275216533727e-13       1.784389773449e-16       2.858724664032e-11       3.295146187299e-12      -1.079474351640e-14 
   67       2.377117263392e-10       3.845177268517e-14      -5.802022765710e-13       1.838985277163e-16       2.759502446583e-11       3.195399233351e-12      -1.079968533722e-14 
   68       2.408424704453e-10       4.011126320467e-14      -6.345545290109e-13       1.894404023097e-16       2.664967227753e-11       3.099898743442e-12      -1.074262761539e-14 
   69       2.440056911400e-10       4.180230887121e-14      -6.905598846159e-13       1.950649963456e-16       2.574889888739e-11       3.008536374024e-12      -1.063513681148e-14 
   70       2.471999512007e-10       4.352367825266e-14      -7.481978800693e-13       2.007727544185e-16       2.488931950323e-11       2.921109119757e-12      -1.049053520050e-14 
   71       2.504230258901e-10       4.527403935729e-14      -8.074461148369e-13       2.065641723971e-16       2.406640343658e-11       2.837314592530e-12      -1.032396793179e-14 
   72       2.536727746044e-10       4.705206091390e-14      -8.682800421959e-13       2.124397205701e-16       2.327563951106e-11       2.756835665917e-12      -1.014962683852e-14 
   73       2.569500425063e-10       4.885674358902e-14      -9.306722958305e-13       2.183995917807e-16       2.251640747243e-11       2.679623709488e-12      -9.971655913226e-15 
   74       2.602562428308e-10       5.068714868229e-14      -9.945932334161e-13       2.244439081562e-16       2.178875865523e-11       2.605661442882e-12      -9.791613198654e-15 
   75       2.635924721082e-10       5.254230045582e-14      -1.060011129493e-12       2.305727956803e-16       2.109224005123e-11       2.534875752437e-12      -9.611161470866e-15 
   76       2.669594891742e-10       5.442118630495e-14      -1.126892170719e-12       2.367863842961e-16       2.042586981866e-11       2.467135010507e-12      -9.432070384715e-15 
   77       2.703576941798e-10       5.632275692903e-14      -1.195200451119e-12       2.430848080084e-16       1.978811279135e-11       2.402246394794e-12      -9.256218619289e-15 
   78       2.737871076013e-10       5.824592650219e-14      -1.264897967338e-12       2.494682049864e-16       1.917685598797e-11       2.339953207673e-12      -9.085596023363e-15 
   79       2.772473492498e-10       6.018957284410e-14      -1.335944613892e-12       2.559367176665e-16       1.858938412116e-11       2.279932195519e-12      -8.922305760858e-15 
   80       2.807379875345e-10       6.215248644518e-14      -1.408298434305e-12       2.624904554157e-16       1.802305403775e-11       2.221873559380e-12      -8.768208019285e-15 
   81       2.842597032817e-10       6.413320697142e-14      -1.481916435190e-12       2.691293748295e-16       1.747750680713e-11       2.165742886612e-12      -8.623775156808e-15 
   82       2.878132906600e-10       6.613015854481e-14      -1.556753905539e-12       2.758533787356e-16       1.695279688771e-11       2.111560027235e-12      -8.489040718769e-15 
   83       2.913992909637e-10       6.814169760261e-14      -1.632764173386e-12       2.826623512056e-16       1.644871594769e-11       2.059319311230e-12      -8.363935792448e-15 
   84       2.950179784791e-10       7.016611212099e-14      -1.709898605798e-12       2.895561569638e-16       1.596478131736e-11       2.008988399189e-12      -8.248284514798e-15 
   85       2.986693463510e-10       7.220162083864e-14      -1.788106608862e-12       2.965346407968e-16       1.550022444149e-11       1.960507132965e-12      -8.141799580174e-15 
   86       3.023530924491e-10       7.424637248044e-14      -1.867335627682e-12       3.035976269627e-16       1.505397933167e-11       1.913786386314e-12      -8.044077748064e-15 
   87       3.060686052348e-10       7.629844498105e-14      -1.947531146359e-12       3.107449186007e-16       1.462467101866e-11       1.868706915548e-12      -7.954595350817e-15 
   88       3.098149496269e-10       7.835584470855e-14      -2.028636687991e-12       3.179762971400e-16       1.421060400474e-11       1.825118210180e-12      -7.872703801377e-15 
   89       3.135912049291e-10       8.041658013477e-14      -2.110594750168e-12       3.252916410375e-16       1.381016609632e-11       1.782875425261e-12      -7.797654647231e-15 
   90       3.173975701689e-10       8.247889778261e-14      -2.193349779688e-12       3.326913046237e-16       1.342313767216e-11       1.741959323247e-12      -7.728689028479e-15 
   91       3.212344069169e-10       8.454108203293e-14      -2.276845666627e-12       3.401757978737e-16       1.304956747668e-11       1.702373117061e-12      -7.664954041536e-15 
   92       3.251018939265e-10       8.660138430701e-14      -2.361024864186e-12       3.477456735492e-16       1.268937027263e-11       1.664105492575e-12      -7.605470449065e-15 
   93       3.290000182750e-10       8.865802340543e-14      -2.445828402688e-12       3.554015283963e-16       1.234232151637e-11       1.627130029770e-12      -7.549128630351e-15 
   94       3.329285665039e-10       9.070918584705e-14      -2.531195903590e-12       3.631440043422e-16       1.200805203315e-11       1.591404623896e-12      -7.494684531672e-15 
   95       3.368871157601e-10       9.275302620791e-14      -2.617065593482e-12       3.709737896917e-16       1.168604269235e-11       1.556870906629e-12      -7.440755616664e-15 
   96       3.408750249362e-10       9.478766746020e-14      -2.703374318099e-12       3.788916203252e-16       1.137561908281e-11       1.523453667238e-12      -7.385816816699e-15 
   97       3.448914258116e-10       9.681120131115e-14      -2.790057556320e-12       3.868982808947e-16       1.107594618807e-11       1.491060273735e-12      -7.328196481249e-15 
   98       3.489352141930e-10       9.882168854203e-14      -2.877049434178e-12       3.949946060218e-16       1.078602306166e-11       1.459580094046e-12      -7.266072328261e-15 
   99       3.530053280397e-10       1.008171893685e-13      -2.964283328704e-12       4.031814482207e-16       1.050491226839e-11       1.428911055428e-12      -7.197925250613e-15 
  100       3.571016459380e-10       1.027958586960e-13      -3.051693746789e-12       4.114595739000e-16       1.023247679960e-11       1.399044866425e-12      -7.123982831704e-15 
  101       3.612242000220e-10       1.047558650488e-13      -3.139214739703e-12       4.198297547855e-16       9.968738129467e-12       1.369992846718e-12      -7.044973719595e-15 
  102       3.653728950302e-10       1.066953624463e-13      -3.226779357884e-12       4.282928006635e-16       9.713648313094e-12       1.341759619009e-12      -6.961689492815e-15 
  103       3.695475029249e-10       1.086124911060e-13      -3.314319672088e-12       4.368495601740e-16       9.467087507465e-12       1.314342859135e-12      -6.874986160498e-15 
  104       3.737476575112e-10       1.105053781457e-13      -3.401766794553e-12       4.455009216048e-16       9.228861492353e-12       1.287733046174e-12      -6.785785662527e-15 
  105       3.779728490569e-10       1.123721382872e-13      -3.489050900143e-12       4.542478136846e-16       8.998699191253e-12       1.261913212554e-12      -6.695077369672e-15 
  106       3.822224189114e-10       1.142108745584e-13      -3.576101247512e-12       4.630912063775e-16       8.776250192303e-12       1.236858694161e-12      -6.603919583732e-15 
  107       3.864955541255e-10       1.160196789965e-13      -3.662846200254e-12       4.720321116760e-16       8.561082269211e-12       1.212536880450e-12      -6.513441037680e-15 
